%time,field.data
1474475501794238953,33.3333358765
1474475503344271248,42.8571434021
1474475504798857602,50.0
1474475507242017763,55.555557251
1474475508644741551,60.0000038147
1474475510099636856,63.6363639832
1474475511395363267,66.6666717529
1474475512828802465,69.2307739258
1474475515178874216,71.4285736084
1474475516638857030,73.3333358765
1474475517959602289,75.0
1474475519383441898,76.4705886841
1474475520759290510,77.7777786255
1474475522899857028,78.9473724365
1474475524350610877,80.0
1474475525752919877,80.9523849487
1474475527391005894,81.8181838989
1474475528739083646,82.6086959839
1474475531701130671,83.3333282471
1474475534278019224,84.0
1474475535722926161,84.6153869629
1474475537341066253,85.1851882935
1474475539199283765,85.7142868042
1474475540563899082,86.2068939209
1474475541977308519,86.6666641235
1474475543364767480,87.0967712402
1474475544653616671,87.5
1474475547614085929,87.8787841797
1474475550397647651,88.2352981567
1474475551780009005,88.5714263916
1474475553437147532,88.8888931274
1474475554868650362,89.1891860962
1474475556400246487,89.4736862183
1474475557819735992,89.7435913086
1474475560451911834,90.0
1474475561842502308,90.2438964844
1474475563352362743,90.4761886597
1474475564775144131,90.6976776123
1474475566379140940,90.9090957642
1474475568276558535,91.111114502
1474475569648770087,91.3043518066
1474475572324806360,91.489364624
1474475573699473924,91.6666717529
1474475577054727590,91.836730957
1474475578377670135,92.0
1474475579812439973,92.1568603516
1474475581319144754,92.3076934814
1474475582746989648,92.4528274536
1474475584345323675,92.592590332
1474475586194547782,92.7272720337
1474475588991367320,92.8571395874
1474475591239929416,92.982460022
1474475592684160019,93.1034469604
1474475602477538176,91.6666717529
1474475604386342736,91.803276062
1474475605771032265,91.9354858398
1474475607365970599,92.0634918213
1474475608754439487,92.1875
1474475610375348861,92.3076934814
1474475612295739762,92.4242401123
1474475613718431835,92.5373153687
1474475616342863472,92.6470565796
1474475617732735193,92.7536239624
1474475620464577645,92.8571395874
1474475621903783425,92.9577484131
1474475623351376693,93.055557251
1474475627744144702,93.1506881714
1474475629883283158,93.2432403564
1474475631310628262,93.3333358765
1474475632688514076,93.4210510254
1474475636384561876,93.5064926147
1474475637787781097,93.5897445679
1474475640486544715,93.6708831787
1474475641759407115,93.75
1474475643666576891,93.8271560669
1474475644984952364,93.9024353027
1474475646333653428,93.9758987427
1474475647767545830,94.0476150513
1474475649359120064,94.1176452637
1474475651276449745,94.1860427856
1474475655359881072,93.1818161011
1474475656730246943,93.258430481
1474475658374403179,93.3333358765
1474475660272498150,93.4065933228
1474475661705301006,93.478263855
1474475664324065722,93.5483856201
1474475669317576256,91.6666717529
1474475670702507111,91.7525787354
1474475672392295320,91.836730957
1474475673705833673,91.9191894531
1474475676179884107,92.0
1474475677448969322,93.0
1474475678845359968,94.0
1474475680359807616,94.0
1474475681748050651,95.0
1474475683338455108,96.0
1474475685285472156,96.0
1474475686704340428,96.0
1474475689338112702,96.0
1474475690681096309,96.0
1474475693604899640,96.0
1474475694968054725,96.0
1474475696314378324,96.0
1474475697695935633,96.0
1474475701061991668,96.0
1474475702498057861,96.0
1474475703837959192,96.0
1474475705378117506,96.0
1474475710220665839,95.0
1474475711595123169,95.0
1474475713028024078,95.0
1474475714348897102,95.0
1474475718515199291,94.0
1474475721347290011,93.0
1474475722713034061,93.0
1474475724367066411,93.0
1474475727603789674,92.0
1474475728958638848,92.0
1474475730414281554,92.0
1474475731828518860,92.0
1474475734126583380,92.0
1474475735427868163,92.0
1474475736792894606,92.0
1474475742817517650,90.0
1474475745150157919,90.0
1474475746494520795,90.0
1474475747824603789,90.0
1474475751377820068,89.0
1474475755737983568,87.0
1474475757314378637,87.0
1474475759253006971,87.0
1474475760606268335,87.0
1474475763252823164,87.0
1474475764596023436,87.0
1474475768136444988,87.0
1474475769531784236,87.0
1474475770957045884,87.0
1474475772379112825,87.0
1474475773703117292,87.0
1474475775740108470,87.0
1474475777293423226,88.0
1474475778659453362,88.0
1474475783613894499,87.0
1474475784898599234,87.0
1474475787786582517,86.0
1474475789357429572,86.0
1474475792094613108,86.0
1474475794822955723,85.0
1474475796293693332,85.0
1474475797705646937,85.0
1474475801047607852,85.0
1474475802475520944,85.0
1474475803880221604,85.0
1474475805325760719,85.0
1474475806779587622,85.0
1474475809446451243,85.0
1474475810988015851,85.0
1474475812308598686,85.0
1474475813767200455,85.0
1474475815374691438,85.0
1474475817273438094,85.0
1474475818719416273,85.0
1474475821714584687,84.0
1474475828359263167,82.0
1474475829786061170,82.0
1474475831375289688,82.0
1474475833415463139,82.0
1474475836355587784,82.0
1474475841948549145,82.0
1474475844124948274,82.0
1474475848387016995,80.0
1474475851354300916,80.0
1474475854068464132,80.0
1474475855388439003,80.0
1474475859577038035,79.0
1474475873381139642,73.0
1474475876648439462,72.0
1474475881691693766,72.0
1474475895107057744,70.0
1474475898527083523,70.0
1474475914793086846,66.0
1474475918257881791,66.0
1474475926796420443,63.0
1474475932448000016,61.0
1474475935744162731,62.0
1474475937371762376,62.0
1474475938756831739,62.0
1474475946668892516,61.0
1474475948087907520,61.0
1474475952306300748,62.0
1474475956669414111,60.0000038147
1474475959998568855,60.0000038147
1474475962728854252,58.9999961853
1474475964386161460,58.9999961853
1474475965750890788,58.9999961853
1474475972809528555,56.0
1474475978194877912,55.0
1474475979525213644,56.0
1474475981000984226,56.0
1474475990657358443,52.9999961853
1474475993563641475,54.0000038147
1474475996398848578,54.0000038147
1474475999145449955,54.0000038147
1474476001877527194,54.0000038147
1474476005587044175,52.9999961853
1474476009274396962,52.9999961853
1474476010685702864,52.9999961853
1474476014338665100,52.0
1474476017166463012,52.0
1474476026255964789,48.0
1474476027679124627,49.0
1474476030425794688,49.0
1474476037933101677,49.0
1474476040810642741,48.0
1474476046375092865,47.0
1474476047818710139,48.0
1474476049359693235,48.0
1474476050846957488,48.0
1474476052313444420,49.0
1474476053719009806,50.0
1474476055341380268,50.0
1474476058753643681,49.0
1474476060373661883,49.0
1474476086433734913,47.0
1474476087831556155,47.0
1474476089370532239,48.0
1474476090836939976,49.0
1474476093192819272,50.0
1474476095984509861,50.0
1474476100267701052,50.0
1474476101778128048,51.0
1474476113927646500,52.0
1474476115357434325,52.9999961853
1474476116827235681,54.0000038147
1474476132980971886,54.0000038147
1474476137477147210,54.0000038147
1474476161320562756,52.9999961853
1474476166296874451,52.9999961853
